#Refractive index of amorphous NaAlSi3O8; Mutschke et al. 1998, Astron. Astrophys. 333, 188. Database of Optical Constants for Cosmic Dust, Laboratory Astrophysics Group of the AIU Jena
#Data points: 254
#Wavelength (micron) n  k   
      6.689543e+00       1.238930e+00       2.066000e-02 
      6.715879e+00       1.242420e+00       1.833000e-02 
      6.742424e+00       1.231520e+00       1.951000e-02 
      6.769180e+00       1.228780e+00       1.886000e-02 
      6.796149e+00       1.226120e+00       2.112000e-02 
      6.823333e+00       1.221200e+00       1.918000e-02 
      6.850736e+00       1.216390e+00       1.910000e-02 
      6.878360e+00       1.213730e+00       2.053000e-02 
      6.906208e+00       1.209800e+00       2.126000e-02 
      6.934282e+00       1.205840e+00       2.185000e-02 
      6.962585e+00       1.200540e+00       2.207000e-02 
      6.991120e+00       1.196570e+00       2.170000e-02 
      7.019890e+00       1.190920e+00       2.315000e-02 
      7.048898e+00       1.187510e+00       2.341000e-02 
      7.078147e+00       1.182400e+00       2.384000e-02 
      7.107639e+00       1.176970e+00       2.404000e-02 
      7.137378e+00       1.171920e+00       2.561000e-02 
      7.167367e+00       1.167290e+00       2.622000e-02 
      7.197609e+00       1.159720e+00       2.507000e-02 
      7.228107e+00       1.154380e+00       2.454000e-02 
      7.258865e+00       1.146460e+00       2.609000e-02 
      7.289886e+00       1.141250e+00       2.885000e-02 
      7.321173e+00       1.136160e+00       2.643000e-02 
      7.352730e+00       1.125980e+00       2.925000e-02 
      7.384560e+00       1.118110e+00       2.942000e-02 
      7.416667e+00       1.109180e+00       3.148000e-02 
      7.449054e+00       1.101850e+00       2.997000e-02 
      7.481725e+00       1.092330e+00       3.339000e-02 
      7.514684e+00       1.083820e+00       3.508000e-02 
      7.547935e+00       1.074850e+00       3.595000e-02 
      7.581481e+00       1.062430e+00       3.393000e-02 
      7.615327e+00       1.046000e+00       3.518000e-02 
      7.649477e+00       1.035540e+00       3.808000e-02 
      7.683934e+00       1.025220e+00       3.765000e-02 
      7.718703e+00       1.006430e+00       3.963000e-02 
      7.753788e+00       9.926900e-01       4.830000e-02 
      7.789194e+00       9.750700e-01       4.638000e-02 
      7.824923e+00       9.584300e-01       5.095000e-02 
      7.860983e+00       9.383000e-01       5.782000e-02 
      7.897376e+00       9.131600e-01       6.357000e-02 
      7.934108e+00       8.882200e-01       7.203000e-02 
      7.971184e+00       8.596000e-01       8.108000e-02 
      8.008607e+00       8.273600e-01       9.563000e-02 
      8.046384e+00       7.912000e-01       1.165200e-01 
      8.084518e+00       7.568000e-01       1.463300e-01 
      8.123016e+00       7.256500e-01       1.854900e-01 
      8.161882e+00       6.998400e-01       2.306700e-01 
      8.201122e+00       6.828900e-01       2.805700e-01 
      8.240741e+00       6.739400e-01       3.307300e-01 
      8.280745e+00       6.713900e-01       3.801900e-01 
      8.321138e+00       6.746200e-01       4.281000e-01 
      8.361928e+00       6.824900e-01       4.729300e-01 
      8.403120e+00       6.929000e-01       5.145300e-01 
      8.444719e+00       7.062600e-01       5.533400e-01 
      8.486733e+00       7.207200e-01       5.897000e-01 
      8.529166e+00       7.353500e-01       6.235400e-01 
      8.572027e+00       7.514300e-01       6.545600e-01 
      8.615320e+00       7.661000e-01       6.847600e-01 
      8.659053e+00       7.807200e-01       7.132200e-01 
      8.703231e+00       7.950200e-01       7.424100e-01 
      8.747863e+00       8.084500e-01       7.709300e-01 
      8.792955e+00       8.214500e-01       8.005500e-01 
      8.838514e+00       8.334700e-01       8.304200e-01 
      8.884549e+00       8.458400e-01       8.623200e-01 
      8.931064e+00       8.578700e-01       8.963200e-01 
      8.978070e+00       8.708800e-01       9.340700e-01 
      9.025573e+00       8.846000e-01       9.755000e-01 
      9.073582e+00       9.014000e-01       1.020170e+00 
      9.122103e+00       9.219500e-01       1.070390e+00 
      9.171146e+00       9.486700e-01       1.126470e+00 
      9.220721e+00       9.840800e-01       1.186670e+00 
      9.270833e+00       1.031860e+00       1.247780e+00 
      9.321494e+00       1.092320e+00       1.308130e+00 
      9.372710e+00       1.166460e+00       1.362390e+00 
      9.424494e+00       1.251680e+00       1.407500e+00 
      9.476852e+00       1.344630e+00       1.441450e+00 
      9.529796e+00       1.443490e+00       1.460830e+00 
      9.583333e+00       1.544510e+00       1.470300e+00 
      9.637477e+00       1.648420e+00       1.465330e+00 
      9.692235e+00       1.750720e+00       1.448330e+00 
      9.747619e+00       1.850780e+00       1.419540e+00 
      9.803640e+00       1.948070e+00       1.379410e+00 
      9.860309e+00       2.039020e+00       1.326260e+00 
      9.917636e+00       2.122260e+00       1.264360e+00 
      9.975633e+00       2.199900e+00       1.193300e+00 
      1.003431e+01       2.269860e+00       1.111120e+00 
      1.009369e+01       2.316750e+00       1.031730e+00 
      1.015377e+01       2.365400e+00       9.386400e-01 
      1.021457e+01       2.399680e+00       8.443900e-01 
      1.027610e+01       2.422670e+00       7.452200e-01 
      1.033838e+01       2.431040e+00       6.480500e-01 
      1.040142e+01       2.425090e+00       5.526700e-01 
      1.046524e+01       2.408020e+00       4.596100e-01 
      1.052984e+01       2.380100e+00       3.719200e-01 
      1.059524e+01       2.337540e+00       2.960100e-01 
      1.066146e+01       2.291550e+00       2.298100e-01 
      1.072851e+01       2.237020e+00       1.761600e-01 
      1.079641e+01       2.184900e+00       1.328200e-01 
      1.086518e+01       2.129930e+00       9.879000e-02 
      1.093483e+01       2.078000e+00       7.554000e-02 
      1.100538e+01       2.030140e+00       5.726000e-02 
      1.107684e+01       1.985300e+00       4.495000e-02 
      1.114924e+01       1.945320e+00       3.687000e-02 
      1.122259e+01       1.906910e+00       3.193000e-02 
      1.129691e+01       1.873370e+00       2.904000e-02 
      1.137222e+01       1.841000e+00       2.740000e-02 
      1.144855e+01       1.808610e+00       2.707000e-02 
      1.152590e+01       1.779380e+00       2.718000e-02 
      1.160431e+01       1.750860e+00       3.002000e-02 
      1.168379e+01       1.720480e+00       2.951000e-02 
      1.176437e+01       1.689760e+00       4.030000e-02 
      1.184607e+01       1.657930e+00       5.047000e-02 
      1.192890e+01       1.631220e+00       6.864000e-02 
      1.201291e+01       1.610340e+00       8.865000e-02 
      1.209811e+01       1.594930e+00       1.105300e-01 
      1.218452e+01       1.584240e+00       1.315200e-01 
      1.227218e+01       1.580000e+00       1.522500e-01 
      1.236111e+01       1.575000e+00       1.709700e-01 
      1.245134e+01       1.580080e+00       1.877500e-01 
      1.254289e+01       1.580030e+00       2.003600e-01 
      1.263580e+01       1.583710e+00       2.136500e-01 
      1.273010e+01       1.590910e+00       2.189000e-01 
      1.282581e+01       1.593720e+00       2.240300e-01 
      1.292298e+01       1.595530e+00       2.254400e-01 
      1.302163e+01       1.597380e+00       2.279400e-01 
      1.312179e+01       1.599660e+00       2.326900e-01 
      1.322351e+01       1.595750e+00       2.358600e-01 
      1.332682e+01       1.597440e+00       2.377000e-01 
      1.343176e+01       1.599700e+00       2.433700e-01 
      1.353836e+01       1.600240e+00       2.496000e-01 
      1.364667e+01       1.603930e+00       2.529800e-01 
      1.375672e+01       1.608240e+00       2.565100e-01 
      1.386856e+01       1.614340e+00       2.601400e-01 
      1.398224e+01       1.623920e+00       2.568900e-01 
      1.409780e+01       1.626810e+00       2.560200e-01 
      1.421528e+01       1.632660e+00       2.480500e-01 
      1.433473e+01       1.637250e+00       2.419200e-01 
      1.445621e+01       1.638840e+00       2.315800e-01 
      1.457977e+01       1.638900e+00       2.255100e-01 
      1.470546e+01       1.635070e+00       2.128100e-01 
      1.483333e+01       1.632040e+00       2.036800e-01 
      1.496345e+01       1.626990e+00       1.973100e-01 
      1.509587e+01       1.612510e+00       1.899100e-01 
      1.523065e+01       1.605820e+00       1.854700e-01 
      1.536787e+01       1.595240e+00       1.792900e-01 
      1.550758e+01       1.582570e+00       1.763000e-01 
      1.564985e+01       1.572700e+00       1.745200e-01 
      1.579475e+01       1.562950e+00       1.772100e-01 
      1.594237e+01       1.545910e+00       1.764100e-01 
      1.609277e+01       1.534440e+00       1.810800e-01 
      1.624603e+01       1.519670e+00       1.832800e-01 
      1.640224e+01       1.506750e+00       1.864400e-01 
      1.656149e+01       1.495290e+00       1.940000e-01 
      1.672386e+01       1.486070e+00       2.027000e-01 
      1.688944e+01       1.479160e+00       2.072600e-01 
      1.705833e+01       1.467280e+00       2.118600e-01 
      1.723064e+01       1.453800e+00       2.185500e-01 
      1.740646e+01       1.448380e+00       2.252300e-01 
      1.758591e+01       1.434470e+00       2.299900e-01 
      1.776910e+01       1.420310e+00       2.368100e-01 
      1.795614e+01       1.406070e+00       2.348600e-01 
      1.814716e+01       1.389760e+00       2.425100e-01 
      1.834229e+01       1.365090e+00       2.451300e-01 
      1.854167e+01       1.337740e+00       2.553800e-01 
      1.874542e+01       1.304520e+00       2.700500e-01 
      1.895370e+01       1.264730e+00       2.863900e-01 
      1.916667e+01       1.215120e+00       3.113300e-01 
      1.938447e+01       1.156860e+00       3.562900e-01 
      1.960728e+01       1.097130e+00       4.221000e-01 
      1.983527e+01       1.046940e+00       5.127500e-01 
      2.006863e+01       1.012540e+00       6.348400e-01 
      2.030754e+01       1.005910e+00       7.723100e-01 
      2.055221e+01       1.033940e+00       9.354400e-01 
      2.080285e+01       1.116250e+00       1.104810e+00 
      2.105967e+01       1.262910e+00       1.254910e+00 
      2.132292e+01       1.461220e+00       1.352160e+00 
      2.159283e+01       1.678580e+00       1.376870e+00 
      2.186966e+01       1.875860e+00       1.334400e+00 
      2.215368e+01       2.043770e+00       1.247570e+00 
      2.244518e+01       2.161510e+00       1.134440e+00 
      2.274444e+01       2.244890e+00       1.013640e+00 
      2.305180e+01       2.291100e+00       8.977000e-01 
      2.336758e+01       2.312400e+00       7.907600e-01 
      2.369213e+01       2.317300e+00       6.979000e-01 
      2.402582e+01       2.311450e+00       6.178300e-01 
      2.436905e+01       2.297130e+00       5.505700e-01 
      2.472222e+01       2.280150e+00       4.925400e-01 
      2.508578e+01       2.259180e+00       4.432000e-01 
      2.546020e+01       2.239690e+00       4.030000e-01 
      2.584596e+01       2.218020e+00       3.658100e-01 
      2.624359e+01       2.197570e+00       3.335000e-01 
      2.665365e+01       2.175220e+00       3.080400e-01 
      2.707672e+01       2.156140e+00       2.869900e-01 
      2.751344e+01       2.136400e+00       2.672700e-01 
      2.796448e+01       2.118400e+00       2.507600e-01 
      2.843056e+01       2.102180e+00       2.366500e-01 
      2.891243e+01       2.087050e+00       2.243700e-01 
      2.941092e+01       2.071590e+00       2.126200e-01 
      2.992690e+01       2.057600e+00       2.026600e-01 
      3.046131e+01       2.044600e+00       1.933100e-01 
      3.101515e+01       2.030660e+00       1.854400e-01 
      3.158951e+01       2.017810e+00       1.783000e-01 
      3.218553e+01       2.005810e+00       1.717500e-01 
      3.280449e+01       1.993570e+00       1.663200e-01 
      3.344771e+01       1.982170e+00       1.621200e-01 
      3.411667e+01       1.969840e+00       1.578600e-01 
      3.481293e+01       1.959400e+00       1.550200e-01 
      3.553820e+01       1.946760e+00       1.525100e-01 
      3.629433e+01       1.935590e+00       1.500600e-01 
      3.708333e+01       1.925070e+00       1.484600e-01 
      3.790741e+01       1.911970e+00       1.504300e-01 
      3.876894e+01       1.901330e+00       1.513600e-01 
      3.967054e+01       1.889790e+00       1.533700e-01 
      4.061508e+01       1.880070e+00       1.561500e-01 
      4.160569e+01       1.868510e+00       1.620800e-01 
      4.264583e+01       1.858940e+00       1.680200e-01 
      4.373932e+01       1.850820e+00       1.748200e-01 
      4.489035e+01       1.842300e+00       1.825300e-01 
      4.610360e+01       1.835820e+00       1.925700e-01 
      4.738426e+01       1.830550e+00       2.026500e-01 
      4.873810e+01       1.825650e+00       2.123800e-01 
      5.017157e+01       1.823850e+00       2.263400e-01 
      5.169192e+01       1.820600e+00       2.369400e-01 
      5.330729e+01       1.820820e+00       2.504100e-01 
      5.502688e+01       1.821750e+00       2.624600e-01 
      5.686111e+01       1.822050e+00       2.736900e-01 
      5.882184e+01       1.823800e+00       2.844400e-01 
      6.092262e+01       1.826650e+00       2.985200e-01 
      6.317901e+01       1.829830e+00       3.114900e-01 
      6.560898e+01       1.834640e+00       3.248200e-01 
      6.823333e+01       1.839610e+00       3.392300e-01 
      7.107639e+01       1.847340e+00       3.532600e-01 
      7.416666e+01       1.854840e+00       3.679200e-01 
      7.753788e+01       1.863240e+00       3.834700e-01 
      8.123016e+01       1.874330e+00       3.992000e-01 
      8.529167e+01       1.885050e+00       4.154600e-01 
      8.978070e+01       1.898490e+00       4.323600e-01 
      9.476852e+01       1.913340e+00       4.501700e-01 
      1.003431e+02       1.929900e+00       4.675200e-01 
      1.066146e+02       1.948770e+00       4.882600e-01 
      1.137222e+02       1.970860e+00       5.075600e-01 
      1.218452e+02       1.997110e+00       5.273800e-01 
      1.312180e+02       2.023800e+00       5.466300e-01 
      1.421528e+02       2.055950e+00       5.662900e-01 
      1.550758e+02       2.085810e+00       5.808400e-01 
      1.705833e+02       2.114970e+00       6.062300e-01 
      1.895370e+02       2.150500e+00       6.319800e-01 
      2.132292e+02       2.192070e+00       6.709100e-01 
      2.436905e+02       2.238710e+00       7.089200e-01 
      2.843056e+02       2.302040e+00       7.768300e-01 
      3.411666e+02       2.394490e+00       8.480100e-01 
      4.264583e+02       2.524780e+00       9.632000e-01 
      5.686112e+02       2.805200e+00       1.118390e+00 
      8.529170e+02       3.336030e+00       1.091630e+00 
