#Refractive index of alpha-crystal SiO2[s] at 928K; Zeidler et al. (2013), A&A, Vol. 553:A81; Philipp (1985) in Palik: "Handbook of Optical Constants of Solids"; Database of Optical Constants for Cosmic Dust, Laboratory Astrophysics Group of the AIU Jena
#Data points: 1472
#Wavelength (micron) n  k
4.769000e-02	6.285000e-01	3.243000e-01
4.862000e-02	6.432000e-01	3.609000e-01
4.959000e-02	6.517000e-01	3.907000e-01
5.061000e-02	6.591000e-01	4.231000e-01
5.166000e-02	6.723000e-01	4.540000e-01
5.276000e-02	6.862000e-01	4.822000e-01
5.391000e-02	6.998000e-01	5.097000e-01
5.510000e-02	7.138000e-01	5.387000e-01
5.636000e-02	7.304000e-01	5.667000e-01
5.767000e-02	7.470000e-01	5.959000e-01
5.904000e-02	7.664000e-01	6.272000e-01
6.048000e-02	7.900000e-01	6.559000e-01
6.199000e-02	8.131000e-01	6.844000e-01
6.358000e-02	8.371000e-01	7.154000e-01
6.526000e-02	8.642000e-01	7.488000e-01
6.702000e-02	8.949000e-01	7.847000e-01
6.888000e-02	9.289000e-01	8.273000e-01
6.985000e-02	9.499000e-01	8.619000e-01
7.085000e-02	9.894000e-01	8.987000e-01
7.125000e-02	1.013000e+00	9.108000e-01
7.187000e-02	1.052000e+00	9.236000e-01
7.293000e-02	1.118000e+00	9.153000e-01
7.402000e-02	1.169000e+00	8.917000e-01
7.514000e-02	1.205000e+00	8.599000e-01
7.629000e-02	1.224000e+00	8.223000e-01
7.749000e-02	1.221000e+00	7.896000e-01
7.872000e-02	1.210000e+00	7.848000e-01
7.999000e-02	1.202000e+00	7.841000e-01
8.130000e-02	1.191000e+00	7.968000e-01
8.266000e-02	1.184000e+00	8.265000e-01
8.377000e-02	1.187000e+00	8.694000e-01
8.492000e-02	1.217000e+00	9.290000e-01
8.610000e-02	1.285000e+00	9.724000e-01
8.670000e-02	1.335000e+00	9.829000e-01
8.731000e-02	1.386000e+00	9.709000e-01
8.856000e-02	1.457000e+00	9.187000e-01
8.984000e-02	1.484000e+00	8.462000e-01
9.116000e-02	1.469000e+00	7.910000e-01
9.252000e-02	1.447000e+00	7.761000e-01
9.392000e-02	1.430000e+00	7.715000e-01
9.537000e-02	1.410000e+00	7.753000e-01
9.686000e-02	1.394000e+00	8.017000e-01
9.839000e-02	1.390000e+00	8.406000e-01
9.998000e-02	1.400000e+00	8.908000e-01
1.016000e-01	1.435000e+00	9.573000e-01
1.033000e-01	1.504000e+00	1.015000e+00
1.042000e-01	1.551000e+00	1.035000e+00
1.051000e-01	1.602000e+00	1.048000e+00
1.060000e-01	1.661000e+00	1.056000e+00
1.069000e-01	1.722000e+00	1.046000e+00
1.078000e-01	1.782000e+00	1.027000e+00
1.088000e-01	1.839000e+00	9.939000e-01
1.097000e-01	1.892000e+00	9.452000e-01
1.107000e-01	1.924000e+00	8.730000e-01
1.117000e-01	1.925000e+00	7.958000e-01
1.127000e-01	1.891000e+00	7.210000e-01
1.137000e-01	1.805000e+00	6.597000e-01
1.143000e-01	1.738000e+00	6.418000e-01
1.145000e-01	1.688000e+00	6.356000e-01
1.148000e-01	1.626000e+00	6.732000e-01
1.153000e-01	1.569000e+00	7.594000e-01
1.159000e-01	1.528000e+00	8.463000e-01
1.164000e-01	1.506000e+00	9.666000e-01
1.170000e-01	1.521000e+00	1.114000e+00
1.175000e-01	1.607000e+00	1.289000e+00
1.181000e-01	1.769000e+00	1.400000e+00
1.186000e-01	1.959000e+00	1.454000e+00
1.192000e-01	2.159000e+00	1.452000e+00
1.196000e-01	2.289000e+00	1.423000e+00
1.198000e-01	2.373000e+00	1.378000e+00
1.204000e-01	2.515000e+00	1.229000e+00
1.210000e-01	2.590000e+00	1.072000e+00
1.215000e-01	2.619000e+00	9.326000e-01
1.227000e-01	2.621000e+00	7.123000e-01
1.240000e-01	2.581000e+00	5.441000e-01
1.252000e-01	2.529000e+00	4.161000e-01
1.265000e-01	2.464000e+00	3.148000e-01
1.278000e-01	2.397000e+00	2.402000e-01
1.291000e-01	2.335000e+00	1.700000e-01
1.305000e-01	2.275000e+00	1.200000e-01
1.319000e-01	2.222000e+00	8.200000e-02
1.333000e-01	2.174000e+00	5.600000e-02
1.348000e-01	2.133000e+00	3.600000e-02
1.362000e-01	2.095000e+00	2.300000e-02
1.378000e-01	2.060000e+00	1.300000e-02
1.393000e-01	2.028000e+00	7.000000e-03
1.409000e-01	1.999000e+00	3.100000e-03
1.425000e-01	1.971000e+00	1.000000e-03
1.442000e-01	1.946000e+00	2.300000e-04
1.459000e-01	1.922000e+00	3.500000e-05
1.476000e-01	1.899000e+00	2.700000e-06
1.494000e-01	1.877000e+00	2.700202e-06
1.512000e-01	1.856000e+00	2.700798e-06
1.531000e-01	1.838000e+00	2.701840e-06
1.550000e-01	1.820000e+00	2.703289e-06
1.590000e-01	1.789000e+00	2.707613e-06
1.631000e-01	1.761000e+00	2.713726e-06
1.675000e-01	1.737000e+00	2.722048e-06
1.722000e-01	1.716000e+00	2.732807e-06
1.771000e-01	1.698000e+00	2.745935e-06
1.837000e-01	1.679000e+00	2.766459e-06
1.851000e-01	1.677500e+00	2.771208e-06
1.854670e-01	1.675780e+00	2.772474e-06
1.935830e-01	1.659990e+00	2.802723e-06
1.980000e-01	1.650870e+00	2.820891e-06
2.000600e-01	1.649270e+00	2.829751e-06
2.025500e-01	1.645570e+00	2.840780e-06
2.044480e-01	1.642880e+00	2.849415e-06
2.110700e-01	1.634320e+00	2.881031e-06
2.144390e-01	1.630390e+00	2.897971e-06
2.194620e-01	1.624970e+00	2.924247e-06
2.265030e-01	1.618180e+00	2.963044e-06
2.310000e-01	1.613950e+00	2.988970e-06
2.312880e-01	1.614010e+00	2.990660e-06
2.427960e-01	1.605250e+00	3.060982e-06
2.503290e-01	1.600320e+00	3.109845e-06
2.573040e-01	1.596220e+00	3.156983e-06
2.631550e-01	1.593090e+00	3.197880e-06
2.748670e-01	1.587520e+00	3.283312e-06
2.913580e-01	1.580980e+00	3.411303e-06
3.034120e-01	1.579550e+00	3.510296e-06
3.122790e-01	1.574330e+00	3.585944e-06
3.252530e-01	1.570915e+00	3.700844e-06
3.400000e-01	1.567470e+00	3.837389e-06
3.403650e-01	1.567470e+00	3.840848e-06
3.586800e-01	1.563915e+00	4.019236e-06
3.940000e-01	1.558460e+00	4.389675e-06
3.968480e-01	1.558130e+00	4.421047e-06
4.046560e-01	1.557156e+00	4.508201e-06
4.101740e-01	1.556502e+00	4.570805e-06
4.340000e-01	1.553960e+00	4.850751e-06
4.340470e-01	1.553963e+00	4.851319e-06
4.358340e-01	1.553790e+00	4.872949e-06
4.678150e-01	1.551027e+00	5.275035e-06
4.799910e-01	1.550118e+00	5.435626e-06
4.861330e-01	1.549683e+00	5.518219e-06
5.080000e-01	1.548220e+00	5.820960e-06
5.085820e-01	1.548229e+00	5.829204e-06
5.183620e-01	1.547651e+00	5.969197e-06
5.338500e-01	1.546799e+00	6.196560e-06
5.460720e-01	1.546174e+00	6.380924e-06
5.790660e-01	1.544667e+00	6.900764e-06
5.875630e-01	1.544316e+00	7.039947e-06
5.892900e-01	1.544246e+00	7.068505e-06
5.893000e-01	1.544240e+00	7.068671e-06
6.278200e-01	1.542819e+00	7.729616e-06
6.438470e-01	1.542288e+00	8.018353e-06
6.562780e-01	1.541899e+00	8.247977e-06
6.678150e-01	1.541553e+00	8.465575e-06
6.707860e-01	1.541466e+00	8.522316e-06
7.065200e-01	1.540488e+00	9.227755e-06
7.281350e-01	1.539948e+00	9.675452e-06
7.664940e-01	1.539071e+00	1.051008e-05
7.680000e-01	1.539030e+00	1.054392e-05
7.947630e-01	1.538478e+00	1.115894e-05
8.325000e-01	1.537730e+00	1.207125e-05
8.446700e-01	1.537525e+00	1.237699e-05
9.914000e-01	1.535140e+00	1.653346e-05
1.000000e+00	1.535030e+00	1.680542e-05
1.014060e+00	1.534830e+00	1.725716e-05
1.083030e+00	1.533870e+00	1.960445e-05
1.159200e+00	1.532830e+00	2.246241e-05
1.200000e+00	1.532320e+00	2.411419e-05
1.300000e+00	1.531020e+00	2.854190e-05
1.307000e+00	1.530900e+00	2.887284e-05
1.395800e+00	1.529770e+00	3.332277e-05
1.400000e+00	1.529720e+00	3.354511e-05
1.479200e+00	1.528650e+00	3.794759e-05
1.529610e+00	1.528000e+00	4.096468e-05
1.541400e+00	1.527810e+00	4.169534e-05
1.600000e+00	1.527030e+00	4.547195e-05
1.681500e+00	1.525830e+00	5.114135e-05
1.761400e+00	1.524680e+00	5.719637e-05
1.800000e+00	1.524130e+00	6.030646e-05
1.945700e+00	1.521840e+00	7.320081e-05
2.053100e+00	1.520050e+00	8.395571e-05
2.058200e+00	1.519980e+00	8.449436e-05
2.300000e+00	1.515610e+00	1.131751e-04
2.500000e+00	1.511560e+00	1.420117e-04
2.600000e+00	1.509860e+00	1.583674e-04
3.000000e+00	1.499530e+00	2.386015e-04
3.500000e+00	1.484510e+00	3.790174e-04
4.000000e+00	1.466170e+00	5.760579e-04
4.200000e+00	1.457000e+00	6.740205e-04
4.400000e+00	1.448000e+00	7.844955e-04
4.600000e+00	1.437000e+00	9.086194e-04
4.800000e+00	1.425000e+00	1.047597e-03
5.000000e+00	1.412000e+00	1.202703e-03
5.200000e+00	1.398000e+00	1.375285e-03
5.400000e+00	1.382000e+00	1.566766e-03
5.600000e+00	1.364000e+00	1.778645e-03
5.800000e+00	1.343000e+00	2.012502e-03
6.000000e+00	1.320000e+00	2.270000e-03
6.100000e+00	1.307000e+00	2.545000e-03
6.200000e+00	1.294000e+00	2.862000e-03
6.300000e+00	1.279000e+00	3.229000e-03
6.400000e+00	1.263000e+00	3.657000e-03
6.500000e+00	1.245000e+00	4.160000e-03
6.600000e+00	1.226000e+00	4.755000e-03
6.700000e+00	1.206000e+00	5.467000e-03
6.800000e+00	1.183000e+00	6.328000e-03
6.900000e+00	1.158000e+00	7.380000e-03
7.000000e+00	1.130000e+00	8.683000e-03
7.050000e+00	1.115000e+00	9.455000e-03
7.100000e+00	1.099000e+00	1.032000e-02
7.150000e+00	1.083000e+00	1.131000e-02
7.200000e+00	1.065000e+00	1.243000e-02
7.250000e+00	1.046000e+00	1.370000e-02
7.300000e+00	1.025000e+00	1.517000e-02
7.350000e+00	1.004000e+00	1.687000e-02
7.400000e+00	9.801000e-01	1.885000e-02
7.450000e+00	9.549000e-01	2.117000e-02
7.500000e+00	9.277000e-01	2.391000e-02
7.550000e+00	8.982000e-01	2.717000e-02
7.600000e+00	8.660000e-01	3.108000e-02
7.650000e+00	8.308000e-01	3.583000e-02
7.700000e+00	7.921000e-01	4.163000e-02
7.750000e+00	7.492000e-01	4.883000e-02
7.800000e+00	7.013000e-01	5.788000e-02
7.850000e+00	6.472000e-01	6.949000e-02
7.900000e+00	5.953000e-01	8.487000e-02
7.950000e+00	5.132000e-01	1.063000e-01
8.000000e+00	5.592944e-01	2.392632e-01
8.006405e+00	5.514082e-01	2.445818e-01
8.012821e+00	5.434503e-01	2.501158e-01
8.019246e+00	5.354268e-01	2.558736e-01
8.025682e+00	5.273462e-01	2.618641e-01
8.032129e+00	5.192158e-01	2.680982e-01
8.038585e+00	5.110451e-01	2.745834e-01
8.045052e+00	5.028457e-01	2.813290e-01
8.051530e+00	4.946286e-01	2.883424e-01
8.058018e+00	4.864065e-01	2.956309e-01
8.064516e+00	4.781929e-01	3.032019e-01
8.071025e+00	4.700049e-01	3.110591e-01
8.077544e+00	4.618573e-01	3.192064e-01
8.084074e+00	4.537665e-01	3.276465e-01
8.090615e+00	4.457515e-01	3.363797e-01
8.097166e+00	4.378282e-01	3.454041e-01
8.103728e+00	4.300161e-01	3.547167e-01
8.110300e+00	4.223317e-01	3.643115e-01
8.116883e+00	4.147926e-01	3.741818e-01
8.123477e+00	4.074146e-01	3.843174e-01
8.130081e+00	4.002122e-01	3.947088e-01
8.136697e+00	3.931998e-01	4.053420e-01
8.143322e+00	3.863884e-01	4.162036e-01
8.149959e+00	3.797889e-01	4.272784e-01
8.156607e+00	3.734080e-01	4.385521e-01
8.163265e+00	3.672521e-01	4.500068e-01
8.169935e+00	3.613269e-01	4.616287e-01
8.176615e+00	3.556333e-01	4.734011e-01
8.183306e+00	3.501729e-01	4.853082e-01
8.190008e+00	3.449435e-01	4.973353e-01
8.196721e+00	3.399449e-01	5.094694e-01
8.203445e+00	3.351724e-01	5.216968e-01
8.210181e+00	3.306215e-01	5.340062e-01
8.216927e+00	3.262871e-01	5.463865e-01
8.223684e+00	3.221641e-01	5.588278e-01
8.230453e+00	3.182454e-01	5.713213e-01
8.237232e+00	3.145255e-01	5.838599e-01
8.244023e+00	3.109959e-01	5.964354e-01
8.250825e+00	3.076510e-01	6.090439e-01
8.257638e+00	3.044835e-01	6.216790e-01
8.264463e+00	3.014863e-01	6.343374e-01
8.271299e+00	2.986530e-01	6.470150e-01
8.278146e+00	2.959766e-01	6.597099e-01
8.285004e+00	2.934514e-01	6.724187e-01
8.291874e+00	2.910709e-01	6.851413e-01
8.298755e+00	2.888296e-01	6.978756e-01
8.305648e+00	2.867216e-01	7.106209e-01
8.312552e+00	2.847415e-01	7.233771e-01
8.319468e+00	2.828841e-01	7.361447e-01
8.326395e+00	2.811454e-01	7.489235e-01
8.333333e+00	2.795197e-01	7.617145e-01
8.340284e+00	2.780038e-01	7.745182e-01
8.347245e+00	2.765928e-01	7.873360e-01
8.354219e+00	2.752842e-01	8.001687e-01
8.361204e+00	2.740732e-01	8.130186e-01
8.368201e+00	2.729570e-01	8.258865e-01
8.375209e+00	2.719326e-01	8.387749e-01
8.382230e+00	2.709979e-01	8.516849e-01
8.389262e+00	2.701482e-01	8.646180e-01
8.396306e+00	2.693828e-01	8.775775e-01
8.403361e+00	2.686989e-01	8.905648e-01
8.410429e+00	2.680948e-01	9.035826e-01
8.417508e+00	2.675670e-01	9.166326e-01
8.424600e+00	2.671155e-01	9.297174e-01
8.431703e+00	2.667382e-01	9.428390e-01
8.438819e+00	2.664326e-01	9.560008e-01
8.445946e+00	2.661982e-01	9.692046e-01
8.453085e+00	2.660335e-01	9.824528e-01
8.460237e+00	2.659377e-01	9.957483e-01
8.467401e+00	2.659094e-01	1.009094e+00
8.474576e+00	2.659479e-01	1.022492e+00
8.481764e+00	2.660528e-01	1.035946e+00
8.488964e+00	2.662229e-01	1.049457e+00
8.496177e+00	2.664575e-01	1.063030e+00
8.503401e+00	2.667566e-01	1.076667e+00
8.510638e+00	2.671204e-01	1.090371e+00
8.517888e+00	2.675469e-01	1.104144e+00
8.525149e+00	2.680375e-01	1.117990e+00
8.532423e+00	2.685915e-01	1.131913e+00
8.539710e+00	2.692090e-01	1.145914e+00
8.547009e+00	2.698899e-01	1.159999e+00
8.554320e+00	2.706351e-01	1.174168e+00
8.561644e+00	2.714442e-01	1.188427e+00
8.568980e+00	2.723184e-01	1.202778e+00
8.576329e+00	2.732572e-01	1.217225e+00
8.583691e+00	2.742613e-01	1.231772e+00
8.591065e+00	2.753319e-01	1.246423e+00
8.598452e+00	2.764692e-01	1.261179e+00
8.605852e+00	2.776750e-01	1.276047e+00
8.613264e+00	2.789492e-01	1.291028e+00
8.620690e+00	2.802935e-01	1.306128e+00
8.628128e+00	2.817086e-01	1.321352e+00
8.635579e+00	2.831957e-01	1.336701e+00
8.643042e+00	2.847568e-01	1.352183e+00
8.650519e+00	2.863929e-01	1.367799e+00
8.658009e+00	2.881055e-01	1.383556e+00
8.665511e+00	2.898963e-01	1.399457e+00
8.673027e+00	2.917665e-01	1.415507e+00
8.680556e+00	2.937200e-01	1.431712e+00
8.688097e+00	2.957569e-01	1.448077e+00
8.695652e+00	2.978800e-01	1.464605e+00
8.703220e+00	3.000915e-01	1.481304e+00
8.710801e+00	3.023946e-01	1.498178e+00
8.718396e+00	3.047913e-01	1.515234e+00
8.726003e+00	3.072847e-01	1.532477e+00
8.733624e+00	3.098780e-01	1.549912e+00
8.741259e+00	3.125731e-01	1.567547e+00
8.748906e+00	3.153751e-01	1.585388e+00
8.756567e+00	3.182865e-01	1.603442e+00
8.764242e+00	3.213119e-01	1.621715e+00
8.771930e+00	3.244538e-01	1.640214e+00
8.779631e+00	3.277175e-01	1.658948e+00
8.787346e+00	3.311082e-01	1.677924e+00
8.795075e+00	3.346297e-01	1.697150e+00
8.802817e+00	3.382871e-01	1.716633e+00
8.810573e+00	3.420871e-01	1.736383e+00
8.818342e+00	3.460334e-01	1.756409e+00
8.826125e+00	3.501334e-01	1.776719e+00
8.833922e+00	3.543931e-01	1.797324e+00
8.841733e+00	3.588201e-01	1.818233e+00
8.849558e+00	3.634207e-01	1.839457e+00
8.857396e+00	3.682039e-01	1.861006e+00
8.865248e+00	3.731765e-01	1.882892e+00
8.873114e+00	3.783483e-01	1.905126e+00
8.880995e+00	3.837283e-01	1.927721e+00
8.888889e+00	3.893273e-01	1.950690e+00
8.896797e+00	3.951553e-01	1.974044e+00
8.904720e+00	4.012244e-01	1.997799e+00
8.912656e+00	4.075458e-01	2.021969e+00
8.920607e+00	4.141329e-01	2.046568e+00
8.928571e+00	4.210006e-01	2.071612e+00
8.936550e+00	4.281628e-01	2.097118e+00
8.944544e+00	4.356359e-01	2.123103e+00
8.952551e+00	4.434384e-01	2.149584e+00
8.960573e+00	4.515865e-01	2.176579e+00
8.968610e+00	4.601018e-01	2.204109e+00
8.976661e+00	4.690059e-01	2.232194e+00
8.984726e+00	4.783205e-01	2.260854e+00
8.992806e+00	4.880711e-01	2.290112e+00
9.000900e+00	4.982851e-01	2.319991e+00
9.009009e+00	5.089913e-01	2.350515e+00
9.017133e+00	5.202205e-01	2.381709e+00
9.025271e+00	5.320072e-01	2.413600e+00
9.033424e+00	5.443884e-01	2.446215e+00
9.041591e+00	5.574033e-01	2.479580e+00
9.049774e+00	5.710960e-01	2.513730e+00
9.057971e+00	5.855129e-01	2.548691e+00
9.066183e+00	6.007060e-01	2.584497e+00
9.074410e+00	6.167304e-01	2.621181e+00
9.082652e+00	6.336477e-01	2.658777e+00
9.090909e+00	6.515247e-01	2.697321e+00
9.099181e+00	6.704341e-01	2.736849e+00
9.107468e+00	6.904553e-01	2.777398e+00
9.115770e+00	7.116757e-01	2.819006e+00
9.124088e+00	7.341920e-01	2.861712e+00
9.132420e+00	7.581095e-01	2.905554e+00
9.140768e+00	7.835426e-01	2.950570e+00
9.149131e+00	8.106207e-01	2.996798e+00
9.157509e+00	8.394824e-01	3.044275e+00
9.165903e+00	8.702840e-01	3.093035e+00
9.174312e+00	9.031953e-01	3.143109e+00
9.182736e+00	9.384057e-01	3.194524e+00
9.191176e+00	9.761228e-01	3.247301e+00
9.199632e+00	1.016577e+00	3.301454e+00
9.208103e+00	1.060022e+00	3.356987e+00
9.216590e+00	1.106740e+00	3.413890e+00
9.225092e+00	1.157042e+00	3.472139e+00
9.233610e+00	1.211270e+00	3.531688e+00
9.242144e+00	1.269803e+00	3.592467e+00
9.250694e+00	1.333060e+00	3.654374e+00
9.259259e+00	1.401502e+00	3.717269e+00
9.267841e+00	1.475636e+00	3.780961e+00
9.276438e+00	1.556020e+00	3.845202e+00
9.285051e+00	1.643266e+00	3.909670e+00
9.293680e+00	1.738043e+00	3.973947e+00
9.302326e+00	1.841082e+00	4.037505e+00
9.310987e+00	1.953173e+00	4.099664e+00
9.319664e+00	2.075164e+00	4.159564e+00
9.328358e+00	2.207948e+00	4.216102e+00
9.337068e+00	2.352437e+00	4.267875e+00
9.345794e+00	2.509507e+00	4.313093e+00
9.354537e+00	2.679905e+00	4.349486e+00
9.363296e+00	2.864090e+00	4.374214e+00
9.372071e+00	3.061995e+00	4.383812e+00
9.380863e+00	3.272686e+00	4.374209e+00
9.389671e+00	3.493966e+00	4.340934e+00
9.398496e+00	3.721978e+00	4.279541e+00
9.407338e+00	3.950982e+00	4.186332e+00
9.416196e+00	4.173502e+00	4.059281e+00
9.425071e+00	4.381018e+00	3.898924e+00
9.433962e+00	4.565148e+00	3.708854e+00
9.442871e+00	4.719060e+00	3.495518e+00
9.451796e+00	4.838593e+00	3.267271e+00
9.460738e+00	4.922721e+00	3.033000e+00
9.469697e+00	4.973252e+00	2.800800e+00
9.478673e+00	4.994010e+00	2.577094e+00
9.487666e+00	4.989863e+00	2.366300e+00
9.496676e+00	4.965891e+00	2.170955e+00
9.505703e+00	4.926820e+00	1.992084e+00
9.514748e+00	4.876734e+00	1.829633e+00
9.523810e+00	4.818976e+00	1.682860e+00
9.532888e+00	4.756191e+00	1.550641e+00
9.541985e+00	4.690404e+00	1.431680e+00
9.551098e+00	4.623138e+00	1.324652e+00
9.560229e+00	4.555508e+00	1.228278e+00
9.569378e+00	4.488324e+00	1.141374e+00
9.578544e+00	4.422156e+00	1.062866e+00
9.587728e+00	4.357398e+00	9.917945e-01
9.596929e+00	4.294311e+00	9.273110e-01
9.606148e+00	4.233060e+00	8.686694e-01
9.615385e+00	4.173736e+00	8.152164e-01
9.624639e+00	4.116382e+00	7.663793e-01
9.633911e+00	4.061002e+00	7.216589e-01
9.643202e+00	4.007573e+00	6.806163e-01
9.652510e+00	3.956055e+00	6.428672e-01
9.661836e+00	3.906396e+00	6.080765e-01
9.671180e+00	3.858533e+00	5.759466e-01
9.680542e+00	3.812402e+00	5.462173e-01
9.689922e+00	3.767935e+00	5.186576e-01
9.699321e+00	3.725062e+00	4.930636e-01
9.708738e+00	3.683713e+00	4.692554e-01
9.718173e+00	3.643823e+00	4.470707e-01
9.727626e+00	3.605323e+00	4.263680e-01
9.737098e+00	3.568152e+00	4.070177e-01
9.746589e+00	3.532248e+00	3.889062e-01
9.756098e+00	3.497552e+00	3.719296e-01
9.765625e+00	3.464009e+00	3.559966e-01
9.775171e+00	3.431565e+00	3.410234e-01
9.784736e+00	3.400169e+00	3.269357e-01
9.794319e+00	3.369775e+00	3.136638e-01
9.803922e+00	3.340335e+00	3.011479e-01
9.813543e+00	3.311808e+00	2.893313e-01
9.823183e+00	3.284151e+00	2.781631e-01
9.832842e+00	3.257326e+00	2.675970e-01
9.842520e+00	3.231297e+00	2.575920e-01
9.852217e+00	3.206029e+00	2.481073e-01
9.861933e+00	3.181488e+00	2.391096e-01
9.871668e+00	3.157645e+00	2.305650e-01
9.881423e+00	3.134468e+00	2.224449e-01
9.891197e+00	3.111931e+00	2.147212e-01
9.900990e+00	3.090007e+00	2.073696e-01
9.910803e+00	3.068671e+00	2.003664e-01
9.920635e+00	3.047899e+00	1.936898e-01
9.930487e+00	3.027668e+00	1.873204e-01
9.940358e+00	3.007957e+00	1.812398e-01
9.950249e+00	2.988746e+00	1.754308e-01
9.960159e+00	2.970014e+00	1.698785e-01
9.970090e+00	2.951745e+00	1.645676e-01
9.980040e+00	2.933920e+00	1.594844e-01
9.990010e+00	2.916523e+00	1.546167e-01
1.000000e+01	2.899538e+00	1.499531e-01
1.001001e+01	2.882949e+00	1.454812e-01
1.002004e+01	2.866743e+00	1.411922e-01
1.003009e+01	2.850905e+00	1.370763e-01
1.004016e+01	2.835424e+00	1.331237e-01
1.005025e+01	2.820285e+00	1.293269e-01
1.006036e+01	2.805479e+00	1.256777e-01
1.007049e+01	2.790991e+00	1.221688e-01
1.008065e+01	2.776813e+00	1.187936e-01
1.009082e+01	2.762933e+00	1.155451e-01
1.010101e+01	2.749343e+00	1.124173e-01
1.011122e+01	2.736032e+00	1.094048e-01
1.012146e+01	2.722991e+00	1.065021e-01
1.013171e+01	2.710211e+00	1.037036e-01
1.014199e+01	2.697684e+00	1.010055e-01
1.015228e+01	2.685402e+00	9.840264e-02
1.016260e+01	2.673358e+00	9.589148e-02
1.017294e+01	2.661544e+00	9.346669e-02
1.018330e+01	2.649952e+00	9.112564e-02
1.019368e+01	2.638577e+00	8.886433e-02
1.020408e+01	2.627412e+00	8.667881e-02
1.021451e+01	2.616450e+00	8.456707e-02
1.022495e+01	2.605686e+00	8.252450e-02
1.023541e+01	2.595112e+00	8.055009e-02
1.024590e+01	2.584725e+00	7.863986e-02
1.025641e+01	2.574519e+00	7.679116e-02
1.026694e+01	2.564487e+00	7.500200e-02
1.027749e+01	2.554627e+00	7.327006e-02
1.028807e+01	2.544932e+00	7.159303e-02
1.029866e+01	2.535398e+00	6.996791e-02
1.030928e+01	2.526021e+00	6.839470e-02
1.031992e+01	2.516796e+00	6.686941e-02
1.033058e+01	2.507718e+00	6.539141e-02
